out
NaN
NaN
NaN
NaN
NaN
NaN
NaN
NaN
NaN
NaN
NaN
NaN
NaN
NaN
2.1123972078
2.1043688358
2.0969139190
2.0899914962
2.0835635322
2.0775947084
2.0720522293
2.0669056415
2.0621266671
2.0576890480
2.0535684017
2.0497420873
2.0461890811
2.0428898610
2.0398262995
2.0369815638
2.0343400235
2.0318871647
2.0296095101
2.0274945451
2.0255306490
2.0237070312
2.0220136718
2.0204412667
2.0189811762
2.0176253779
2.0163664224
2.0151973922
2.0141118642
2.0131038739
2.0121678829
2.0112987484
2.0104916949
2.0097422882
2.0090464104
2.0084002383
2.0078002212
2.0072430626
2.0067257010
2.0062452938
2.0057992013
2.0053849727
2.0080529658
2.0150356792
2.0254498187
2.0384359135
2.0531627530
2.0688318377
2.0846817789
2.0999925828
2.1140897585
2.1263481924
2.1361957325
2.1431164353
2.1466534260
2.1464113336
2.1420582629
2.1333272737
2.1238038970
2.1149607615
2.1067492785
2.0991243300
2.0920440208
2.0854694478
2.0793644873
2.0736955953
2.0684316242
2.0635436511
2.0590048189
2.0547901889
2.0508766040
2.0472425609
2.0438680922
2.0407346571
2.0378250387
2.0351232502
2.0326144466
2.0302848433
2.0281216402
2.0261129516
2.0242477408
2.0225157593
2.0209074908
2.0194140986
2.0180273773
2.0167397075
2.0155440141
2.0144337274
2.0134027468
2.0124454078
2.0115564501
2.0107309894
2.0099644901
2.0092527408
2.0085918308
2.0079781286
2.0074082622
2.0068791006
2.0063877363
2.0059314694
2.0055077930
2.0051143793
2.0047490665
2.0044098474
2.0040948583
2.0076509203
2.0153645647
2.0263567054
2.0397727852
2.0547872226
2.0706078609
2.0864803552
2.1016924331
2.1155779695
2.1275208171
2.1369583402
2.1433846000
2.1463531482
2.1454793879
2.1404424655
2.1309866664
2.1216304759
2.1129425848
2.1048752573
2.0973841675
2.0904281555
2.0839690016
2.0779712157
2.0724018432
2.0672302830
2.0624281199
2.0579689685
2.0538283279
2.0499834473
2.0464132011
2.0430979724
2.0400195458
2.0371610068
2.0345066492
2.0320418885
2.0297531822
2.0276279549
2.0256545296
2.0238220632
2.0221204872
2.0205404524
2.0190732773
2.0177109003
2.0164458360
2.0152711334
2.0141803382
2.0131674569
2.0122269242
2.0113535725
2.0105426031
2.0097895600
2.0090903057
2.0084409981
2.0078380697
2.0072782076
2.0067583356
2.0062755974
2.0058273404
2.0054111018
2.0050245945
2.0046656949
2.0043324310
2.0040229716
2.0083648616
2.0167132521
2.0281929966
2.0419542137
2.0571767390
2.0730745690
2.0889002319
2.1039490215
2.1175630356
2.1291349604
2.1381115496
2.1439967471
2.1463544115
2.1448105996
2.1390553785
2.1291228514
2.1198997906
2.1113355199
